 Angle 0.2 2 10
  0.00000E+00  7.49685E+00  9.83586E+01  6.56714E+03
  1.00000E-01  7.49683E+00  9.83500E+01  6.52332E+03
  2.00000E-01  7.49675E+00  9.83248E+01  6.39664E+03
  3.00000E-01  7.49663E+00  9.82824E+01  6.18792E+03
  4.00000E-01  7.49645E+00  9.82232E+01  5.90556E+03
  5.00000E-01  7.49622E+00  9.81471E+01  5.55854E+03
  6.00000E-01  7.49595E+00  9.80542E+01  5.15769E+03
  7.00000E-01  7.49562E+00  9.79445E+01  4.71519E+03
  8.00000E-01  7.49525E+00  9.78182E+01  4.24410E+03
  9.00000E-01  7.49482E+00  9.76748E+01  3.75669E+03
  1.00000E+00  7.49434E+00  9.75152E+01  3.26829E+03
  1.10000E+00  7.49381E+00  9.73386E+01  2.78921E+03
  1.20000E+00  7.49324E+00  9.71457E+01  2.33160E+03
  1.30000E+00  7.49261E+00  9.69367E+01  1.90558E+03
  1.40000E+00  7.49193E+00  9.67110E+01  1.51743E+03
  1.50000E+00  7.49120E+00  9.64692E+01  1.17340E+03
  1.60000E+00  7.49042E+00  9.62113E+01  8.76916E+02
  1.70000E+00  7.48960E+00  9.59373E+01  6.29278E+02
  1.80000E+00  7.48872E+00  9.56472E+01  4.29645E+02
  1.90000E+00  7.48779E+00  9.53417E+01  2.76059E+02
  2.00000E+00  7.48681E+00  9.50206E+01  1.64405E+02
  2.10000E+00  7.48578E+00  9.46836E+01  8.96479E+01
  2.20000E+00  7.48470E+00  9.43316E+01  4.61777E+01
  2.30000E+00  7.48357E+00  9.39642E+01  2.77498E+01
  2.40000E+00  7.48240E+00  9.35817E+01  2.81975E+01
  2.50000E+00  7.48117E+00  9.31846E+01  4.15516E+01
  2.60000E+00  7.47989E+00  9.27725E+01  6.24135E+01
  2.70000E+00  7.47856E+00  9.23459E+01  8.60904E+01
  2.80000E+00  7.47718E+00  9.19049E+01  1.08776E+02
  2.90000E+00  7.47575E+00  9.14497E+01  1.27615E+02
  3.00000E+00  7.47428E+00  9.09806E+01  1.40718E+02
  3.10000E+00  7.47275E+00  9.04976E+01  1.47105E+02
  3.20000E+00  7.47117E+00  9.00011E+01  1.46614E+02
  3.30000E+00  7.46954E+00  8.94912E+01  1.39758E+02
  3.40000E+00  7.46787E+00  8.89681E+01  1.27574E+02
  3.50000E+00  7.46614E+00  8.84321E+01  1.11445E+02
  3.60000E+00  7.46437E+00  8.78833E+01  9.29299E+01
  3.70000E+00  7.46254E+00  8.73220E+01  7.36124E+01
  3.80000E+00  7.46066E+00  8.67485E+01  5.49596E+01
  3.90000E+00  7.45874E+00  8.61626E+01  3.82100E+01
  4.00000E+00  7.45677E+00  8.55652E+01  2.43313E+01
  4.10000E+00  7.45474E+00  8.49562E+01  1.39275E+01
  4.20000E+00  7.45267E+00  8.43360E+01  7.26734E+00
  4.30000E+00  7.45055E+00  8.37047E+01  4.29460E+00
  4.40000E+00  7.44838E+00  8.30625E+01  4.67291E+00
  4.50000E+00  7.44616E+00  8.24099E+01  7.84675E+00
  4.60000E+00  7.44389E+00  8.17469E+01  1.31130E+01
  4.70000E+00  7.44157E+00  8.10740E+01  1.96957E+01
  4.80000E+00  7.43920E+00  8.03916E+01  2.68144E+01
  4.90000E+00  7.43678E+00  7.96995E+01  3.37590E+01
  5.00000E+00  7.43432E+00  7.89981E+01  3.99215E+01
  5.10000E+00  7.43180E+00  7.82882E+01  4.48412E+01
  5.20000E+00  7.42924E+00  7.75693E+01  4.82265E+01
  5.30000E+00  7.42663E+00  7.68424E+01  4.99455E+01
  5.40000E+00  7.42396E+00  7.61074E+01  5.00239E+01
  5.50000E+00  7.42126E+00  7.53646E+01  4.86157E+01
  5.60000E+00  7.41850E+00  7.46144E+01  4.59728E+01
  5.70000E+00  7.41569E+00  7.38569E+01  4.24089E+01
  5.80000E+00  7.41283E+00  7.30926E+01  3.82626E+01
  5.90000E+00  7.40993E+00  7.23220E+01  3.38649E+01
  6.00000E+00  7.40698E+00  7.15448E+01  2.95047E+01
  6.10000E+00  7.40398E+00  7.07619E+01  2.54180E+01
  6.20000E+00  7.40093E+00  6.99733E+01  2.17650E+01
  6.30000E+00  7.39783E+00  6.91793E+01  1.86328E+01
  6.40000E+00  7.39468E+00  6.83804E+01  1.60387E+01
  6.50000E+00  7.39149E+00  6.75766E+01  1.39380E+01
  6.60000E+00  7.38825E+00  6.67685E+01  1.22461E+01
  6.70000E+00  7.38496E+00  6.59562E+01  1.08513E+01
  6.80000E+00  7.38162E+00  6.51400E+01  9.63781E+00
  6.90000E+00  7.37824E+00  6.43205E+01  8.50233E+00
  7.00000E+00  7.37480E+00  6.34977E+01  7.36796E+00
  7.10000E+00  7.37132E+00  6.26720E+01  6.19498E+00
  7.20000E+00  7.36779E+00  6.18436E+01  4.98511E+00
  7.30000E+00  7.36422E+00  6.10130E+01  3.78113E+00
  7.40000E+00  7.36060E+00  6.01805E+01  2.66000E+00
  7.50000E+00  7.35692E+00  5.93461E+01  1.72405E+00
  7.60000E+00  7.35321E+00  5.85105E+01  1.08798E+00
  7.70000E+00  7.34944E+00  5.76736E+01  8.64143E-01
  7.80000E+00  7.34563E+00  5.68362E+01  1.14917E+00
  7.90000E+00  7.34177E+00  5.59980E+01  2.01129E+00
  8.00000E+00  7.33786E+00  5.51599E+01  3.47965E+00
  8.10000E+00  7.33391E+00  5.43217E+01  5.54093E+00
  8.20000E+00  7.32991E+00  5.34840E+01  8.13396E+00
  8.30000E+00  7.32586E+00  5.26469E+01  1.11554E+01
  8.40000E+00  7.32177E+00  5.18108E+01  1.44637E+01
  8.50000E+00  7.31763E+00  5.09759E+01  1.78913E+01
  8.60000E+00  7.31344E+00  5.01425E+01  2.12552E+01
  8.70000E+00  7.30921E+00  4.93111E+01  2.43690E+01
  8.80000E+00  7.30493E+00  4.84816E+01  2.70621E+01
  8.90000E+00  7.30061E+00  4.76545E+01  2.91847E+01
  9.00000E+00  7.29624E+00  4.68301E+01  3.06233E+01
  9.10000E+00  7.29182E+00  4.60085E+01  3.13069E+01
  9.20000E+00  7.28736E+00  4.51900E+01  3.12104E+01
  9.30000E+00  7.28285E+00  4.43750E+01  3.03557E+01
  9.40000E+00  7.27829E+00  4.35637E+01  2.88091E+01
  9.50000E+00  7.27369E+00  4.27564E+01  2.66749E+01
  9.60000E+00  7.26905E+00  4.19531E+01  2.40857E+01
  9.70000E+00  7.26436E+00  4.11543E+01  2.11963E+01
  9.80000E+00  7.25962E+00  4.03602E+01  1.81673E+01
  9.90000E+00  7.25484E+00  3.95710E+01  1.51589E+01
  1.00000E+01  7.25001E+00  3.87868E+01  1.23180E+01
  1.01000E+01  7.24514E+00  3.80080E+01  9.77202E+00
  1.02000E+01  7.24022E+00  3.72348E+01  7.62117E+00
  1.03000E+01  7.23526E+00  3.64675E+01  5.93489E+00
  1.04000E+01  7.23025E+00  3.57061E+01  4.75031E+00
  1.05000E+01  7.22520E+00  3.49510E+01  4.07385E+00
  1.06000E+01  7.22010E+00  3.42021E+01  3.88313E+00
  1.07000E+01  7.21497E+00  3.34601E+01  4.13183E+00
  1.08000E+01  7.20978E+00  3.27248E+01  4.75511E+00
  1.09000E+01  7.20455E+00  3.19965E+01  5.67553E+00
  1.10000E+01  7.19928E+00  3.12755E+01  6.80913E+00
  1.11000E+01  7.19396E+00  3.05618E+01  8.07096E+00
  1.12000E+01  7.18860E+00  2.98556E+01  9.38011E+00
  1.13000E+01  7.18320E+00  2.91571E+01  1.06626E+01
  1.14000E+01  7.17775E+00  2.84666E+01  1.18545E+01
  1.15000E+01  7.17226E+00  2.77841E+01  1.29041E+01
  1.16000E+01  7.16672E+00  2.71098E+01  1.37709E+01
  1.17000E+01  7.16114E+00  2.64438E+01  1.44262E+01
  1.18000E+01  7.15552E+00  2.57863E+01  1.48522E+01
  1.19000E+01  7.14986E+00  2.51375E+01  1.50403E+01
  1.20000E+01  7.14415E+00  2.44974E+01  1.49906E+01
  1.21000E+01  7.13840E+00  2.38661E+01  1.47101E+01
  1.22000E+01  7.13261E+00  2.32439E+01  1.42121E+01
  1.23000E+01  7.12677E+00  2.26307E+01  1.35156E+01
  1.24000E+01  7.12089E+00  2.20268E+01  1.26450E+01
  1.25000E+01  7.11497E+00  2.14322E+01  1.16300E+01
  1.26000E+01  7.10901E+00  2.08470E+01  1.05052E+01
  1.27000E+01  7.10300E+00  2.02714E+01  9.31048E+00
  1.28000E+01  7.09695E+00  1.97053E+01  8.08964E+00
  1.29000E+01  7.09087E+00  1.91489E+01  6.89079E+00
  1.30000E+01  7.08473E+00  1.86023E+01  5.76375E+00
  1.31000E+01  7.07856E+00  1.80655E+01  4.75902E+00
  1.32000E+01  7.07235E+00  1.75386E+01  3.92536E+00
  1.33000E+01  7.06609E+00  1.70216E+01  3.30671E+00
  1.34000E+01  7.05980E+00  1.65146E+01  2.94022E+00
  1.35000E+01  7.05346E+00  1.60176E+01  2.85272E+00
  1.36000E+01  7.04708E+00  1.55307E+01  3.05875E+00
  1.37000E+01  7.04066E+00  1.50539E+01  3.55844E+00
  1.38000E+01  7.03420E+00  1.45873E+01  4.33657E+00
  1.39000E+01  7.02770E+00  1.41309E+01  5.36211E+00
  1.40000E+01  7.02116E+00  1.36846E+01  6.58950E+00
  1.41000E+01  7.01458E+00  1.32485E+01  7.96021E+00
  1.42000E+01  7.00795E+00  1.28226E+01  9.40546E+00
  1.43000E+01  7.00129E+00  1.24069E+01  1.08506E+01
  1.44000E+01  6.99459E+00  1.20014E+01  1.22190E+01
  1.45000E+01  6.98785E+00  1.16062E+01  1.34362E+01
  1.46000E+01  6.98107E+00  1.12211E+01  1.44360E+01
  1.47000E+01  6.97425E+00  1.08462E+01  1.51633E+01
  1.48000E+01  6.96738E+00  1.04813E+01  1.55786E+01
  1.49000E+01  6.96049E+00  1.01267E+01  1.56603E+01
  1.50000E+01  6.95355E+00  9.78205E+00  1.54063E+01
  1.51000E+01  6.94657E+00  9.44745E+00  1.48346E+01
  1.52000E+01  6.93955E+00  9.12286E+00  1.39817E+01
  1.53000E+01  6.93250E+00  8.80823E+00  1.29009E+01
  1.54000E+01  6.92540E+00  8.50350E+00  1.16584E+01
  1.55000E+01  6.91827E+00  8.20861E+00  1.03295E+01
  1.56000E+01  6.91110E+00  7.92347E+00  8.99316E+00
  1.57000E+01  6.90389E+00  7.64805E+00  7.72777E+00
  1.58000E+01  6.89665E+00  7.38223E+00  6.60560E+00
  1.59000E+01  6.88936E+00  7.12602E+00  5.68893E+00
  1.60000E+01  6.88204E+00  6.87926E+00  5.02546E+00
  1.61000E+01  6.87468E+00  6.64190E+00  4.64641E+00
  1.62000E+01  6.86728E+00  6.41389E+00  4.56445E+00
  1.63000E+01  6.85985E+00  6.19507E+00  4.77345E+00
  1.64000E+01  6.85238E+00  5.98538E+00  5.24937E+00
  1.65000E+01  6.84487E+00  5.78472E+00  5.95217E+00
  1.66000E+01  6.83732E+00  5.59298E+00  6.82874E+00
  1.67000E+01  6.82974E+00  5.41006E+00  7.81664E+00
  1.68000E+01  6.82212E+00  5.23586E+00  8.84818E+00
  1.69000E+01  6.81447E+00  5.07025E+00  9.85476E+00
  1.70000E+01  6.80678E+00  4.91313E+00  1.07712E+01
  1.71000E+01  6.79905E+00  4.76437E+00  1.15394E+01
  1.72000E+01  6.79129E+00  4.62387E+00  1.21119E+01
  1.73000E+01  6.78349E+00  4.49148E+00  1.24543E+01
  1.74000E+01  6.77565E+00  4.36707E+00  1.25468E+01
  1.75000E+01  6.76779E+00  4.25055E+00  1.23851E+01
  1.76000E+01  6.75988E+00  4.14175E+00  1.19797E+01
  1.77000E+01  6.75194E+00  4.04055E+00  1.13551E+01
  1.78000E+01  6.74397E+00  3.94679E+00  1.05479E+01
  1.79000E+01  6.73596E+00  3.86038E+00  9.60403E+00
  1.80000E+01  6.72791E+00  3.78114E+00  8.57582E+00
  1.81000E+01  6.71983E+00  3.70893E+00  7.51875E+00
  1.82000E+01  6.71172E+00  3.64362E+00  6.48831E+00
  1.83000E+01  6.70357E+00  3.58505E+00  5.53688E+00
  1.84000E+01  6.69539E+00  3.53309E+00  4.71065E+00
  1.85000E+01  6.68718E+00  3.48757E+00  4.04735E+00
  1.86000E+01  6.67893E+00  3.44834E+00  3.57461E+00
  1.87000E+01  6.67064E+00  3.41526E+00  3.30851E+00
  1.88000E+01  6.66233E+00  3.38817E+00  3.25333E+00
  1.89000E+01  6.65398E+00  3.36691E+00  3.40139E+00
  1.90000E+01  6.64560E+00  3.35133E+00  3.73401E+00
  1.91000E+01  6.63718E+00  3.34128E+00  4.22282E+00
  1.92000E+01  6.62874E+00  3.33659E+00  4.83142E+00
  1.93000E+01  6.62026E+00  3.33711E+00  5.51783E+00
  1.94000E+01  6.61174E+00  3.34268E+00  6.23693E+00
  1.95000E+01  6.60320E+00  3.35314E+00  6.94253E+00
  1.96000E+01  6.59462E+00  3.36833E+00  7.59063E+00
  1.97000E+01  6.58601E+00  3.38809E+00  8.14125E+00
  1.98000E+01  6.57737E+00  3.41227E+00  8.56114E+00
  1.99000E+01  6.56870E+00  3.44070E+00  8.82495E+00
  2.00000E+01  6.56000E+00  3.47322E+00  8.91716E+00
  2.01000E+01  6.55126E+00  3.50967E+00  8.83248E+00
  2.02000E+01  6.54249E+00  3.54991E+00  8.57621E+00
  2.03000E+01  6.53370E+00  3.59376E+00  8.16394E+00
  2.04000E+01  6.52487E+00  3.64107E+00  7.62047E+00
  2.05000E+01  6.51601E+00  3.69167E+00  6.97850E+00
  2.06000E+01  6.50713E+00  3.74543E+00  6.27644E+00
  2.07000E+01  6.49820E+00  3.80218E+00  5.55621E+00
  2.08000E+01  6.48926E+00  3.86176E+00  4.86120E+00
  2.09000E+01  6.48028E+00  3.92402E+00  4.23284E+00
  2.10000E+01  6.47127E+00  3.98881E+00  3.70869E+00
  2.11000E+01  6.46223E+00  4.05597E+00  3.31974E+00
  2.12000E+01  6.45317E+00  4.12537E+00  3.08885E+00
  2.13000E+01  6.44407E+00  4.19684E+00  3.02895E+00
  2.14000E+01  6.43494E+00  4.27024E+00  3.14239E+00
  2.15000E+01  6.42579E+00  4.34541E+00  3.42056E+00
  2.16000E+01  6.41661E+00  4.42224E+00  3.84465E+00
  2.17000E+01  6.40739E+00  4.50056E+00  4.38651E+00
  2.18000E+01  6.39815E+00  4.58023E+00  5.01044E+00
  2.19000E+01  6.38889E+00  4.66112E+00  5.67575E+00
  2.20000E+01  6.37959E+00  4.74308E+00  6.33906E+00
  2.21000E+01  6.37027E+00  4.82598E+00  6.95709E+00
  2.22000E+01  6.36092E+00  4.90970E+00  7.48988E+00
  2.23000E+01  6.35154E+00  4.99409E+00  7.90285E+00
  2.24000E+01  6.34213E+00  5.07904E+00  8.16964E+00
  2.25000E+01  6.33270E+00  5.16439E+00  8.27341E+00
  2.26000E+01  6.32324E+00  5.25005E+00  8.20832E+00
  2.27000E+01  6.31375E+00  5.33587E+00  7.97970E+00
  2.28000E+01  6.30424E+00  5.42174E+00  7.60375E+00
  2.29000E+01  6.29470E+00  5.50757E+00  7.10631E+00
  2.30000E+01  6.28513E+00  5.59319E+00  6.52147E+00
  2.31000E+01  6.27554E+00  5.67853E+00  5.88859E+00
  2.32000E+01  6.26592E+00  5.76346E+00  5.25016E+00
  2.33000E+01  6.25628E+00  5.84787E+00  4.64857E+00
  2.34000E+01  6.24661E+00  5.93166E+00  4.12332E+00
  2.35000E+01  6.23691E+00  6.01475E+00  3.70806E+00
  2.36000E+01  6.22719E+00  6.09700E+00  3.42877E+00
  2.37000E+01  6.21745E+00  6.17834E+00  3.30144E+00
  2.38000E+01  6.20768E+00  6.25866E+00  3.33141E+00
  2.39000E+01  6.19788E+00  6.33788E+00  3.51297E+00
  2.40000E+01  6.18807E+00  6.41590E+00  3.82975E+00
  2.41000E+01  6.17822E+00  6.49264E+00  4.25611E+00
  2.42000E+01  6.16835E+00  6.56802E+00  4.75897E+00
  2.43000E+01  6.15846E+00  6.64197E+00  5.30027E+00
  2.44000E+01  6.14855E+00  6.71438E+00  5.83943E+00
  2.45000E+01  6.13861E+00  6.78519E+00  6.33671E+00
  2.46000E+01  6.12865E+00  6.85435E+00  6.75580E+00
  2.47000E+01  6.11866E+00  6.92175E+00  7.06622E+00
  2.48000E+01  6.10865E+00  6.98737E+00  7.24571E+00
  2.49000E+01  6.09862E+00  7.05111E+00  7.28150E+00
  2.50000E+01  6.08857E+00  7.11292E+00  7.17123E+00
  2.51000E+01  6.07850E+00  7.17275E+00  6.92295E+00
  2.52000E+01  6.06840E+00  7.23055E+00  6.55437E+00
  2.53000E+01  6.05828E+00  7.28624E+00  6.09159E+00
  2.54000E+01  6.04814E+00  7.33981E+00  5.56688E+00
  2.55000E+01  6.03797E+00  7.39119E+00  5.01652E+00
  2.56000E+01  6.02779E+00  7.44034E+00  4.47799E+00
  2.57000E+01  6.01758E+00  7.48723E+00  3.98726E+00
  2.58000E+01  6.00735E+00  7.53181E+00  3.57639E+00
  2.59000E+01  5.99710E+00  7.57405E+00  3.27101E+00
  2.60000E+01  5.98683E+00  7.61392E+00  3.08882E+00
  2.61000E+01  5.97654E+00  7.65139E+00  3.03831E+00
  2.62000E+01  5.96623E+00  7.68644E+00  3.11836E+00
  2.63000E+01  5.95590E+00  7.71905E+00  3.31850E+00
  2.64000E+01  5.94555E+00  7.74918E+00  3.61973E+00
  2.65000E+01  5.93518E+00  7.77682E+00  3.99617E+00
  2.66000E+01  5.92479E+00  7.80197E+00  4.41705E+00
  2.67000E+01  5.91437E+00  7.82460E+00  4.84882E+00
  2.68000E+01  5.90394E+00  7.84471E+00  5.25789E+00
  2.69000E+01  5.89350E+00  7.86229E+00  5.61286E+00
  2.70000E+01  5.88303E+00  7.87734E+00  5.88689E+00
  2.71000E+01  5.87254E+00  7.88984E+00  6.05936E+00
  2.72000E+01  5.86203E+00  7.89981E+00  6.11746E+00
  2.73000E+01  5.85151E+00  7.90724E+00  6.05677E+00
  2.74000E+01  5.84097E+00  7.91214E+00  5.88149E+00
  2.75000E+01  5.83041E+00  7.91452E+00  5.60396E+00
  2.76000E+01  5.81983E+00  7.91439E+00  5.24352E+00
  2.77000E+01  5.80923E+00  7.91175E+00  4.82510E+00
  2.78000E+01  5.79862E+00  7.90663E+00  4.37718E+00
  2.79000E+01  5.78799E+00  7.89904E+00  3.92970E+00
  2.80000E+01  5.77734E+00  7.88899E+00  3.51186E+00
  2.81000E+01  5.76667E+00  7.87651E+00  3.15002E+00
  2.82000E+01  5.75599E+00  7.86163E+00  2.86594E+00
  2.83000E+01  5.74529E+00  7.84435E+00  2.67514E+00
  2.84000E+01  5.73458E+00  7.82471E+00  2.58617E+00
  2.85000E+01  5.72385E+00  7.80275E+00  2.59991E+00
  2.86000E+01  5.71310E+00  7.77848E+00  2.70985E+00
  2.87000E+01  5.70233E+00  7.75194E+00  2.90269E+00
  2.88000E+01  5.69155E+00  7.72316E+00  3.15943E+00
  2.89000E+01  5.68076E+00  7.69218E+00  3.45697E+00
  2.90000E+01  5.66995E+00  7.65903E+00  3.76983E+00
  2.91000E+01  5.65912E+00  7.62376E+00  4.07202E+00
  2.92000E+01  5.64828E+00  7.58639E+00  4.33907E+00
  2.93000E+01  5.63743E+00  7.54698E+00  4.54965E+00
  2.94000E+01  5.62656E+00  7.50556E+00  4.68712E+00
  2.95000E+01  5.61567E+00  7.46218E+00  4.74058E+00
  2.96000E+01  5.60477E+00  7.41687E+00  4.70563E+00
  2.97000E+01  5.59386E+00  7.36970E+00  4.58445E+00
  2.98000E+01  5.58294E+00  7.32070E+00  4.38552E+00
  2.99000E+01  5.57200E+00  7.26992E+00  4.12293E+00
  3.00000E+01  5.56104E+00  7.21742E+00  3.81509E+00
  3.01000E+01  5.55007E+00  7.16323E+00  3.48345E+00
  3.02000E+01  5.53909E+00  7.10742E+00  3.15075E+00
  3.03000E+01  5.52810E+00  7.05002E+00  2.83936E+00
  3.04000E+01  5.51709E+00  6.99110E+00  2.56974E+00
  3.05000E+01  5.50608E+00  6.93071E+00  2.35887E+00
  3.06000E+01  5.49504E+00  6.86891E+00  2.21911E+00
  3.07000E+01  5.48400E+00  6.80573E+00  2.15744E+00
  3.08000E+01  5.47294E+00  6.74125E+00  2.17500E+00
  3.09000E+01  5.46188E+00  6.67551E+00  2.26717E+00
  3.10000E+01  5.45080E+00  6.60857E+00  2.42394E+00
  3.11000E+01  5.43971E+00  6.54050E+00  2.63083E+00
  3.12000E+01  5.42860E+00  6.47133E+00  2.87000E+00
  3.13000E+01  5.41749E+00  6.40113E+00  3.12154E+00
  3.14000E+01  5.40637E+00  6.32996E+00  3.36506E+00
  3.15000E+01  5.39523E+00  6.25788E+00  3.58113E+00
  3.16000E+01  5.38408E+00  6.18492E+00  3.75272E+00
  3.17000E+01  5.37293E+00  6.11117E+00  3.86629E+00
  3.18000E+01  5.36176E+00  6.03667E+00  3.91286E+00
  3.19000E+01  5.35058E+00  5.96148E+00  3.88846E+00
  3.20000E+01  5.33940E+00  5.88566E+00  3.79439E+00
  3.21000E+01  5.32820E+00  5.80926E+00  3.63702E+00
  3.22000E+01  5.31699E+00  5.73235E+00  3.42725E+00
  3.23000E+01  5.30578E+00  5.65497E+00  3.17955E+00
  3.24000E+01  5.29455E+00  5.57718E+00  2.91097E+00
  3.25000E+01  5.28332E+00  5.49903E+00  2.63974E+00
  3.26000E+01  5.27207E+00  5.42058E+00  2.38399E+00
  3.27000E+01  5.26082E+00  5.34190E+00  2.16044E+00
  3.28000E+01  5.24956E+00  5.26303E+00  1.98308E+00
  3.29000E+01  5.23829E+00  5.18401E+00  1.86232E+00
  3.30000E+01  5.22702E+00  5.10492E+00  1.80428E+00
  3.31000E+01  5.21573E+00  5.02579E+00  1.81035E+00
  3.32000E+01  5.20444E+00  4.94669E+00  1.87722E+00
  3.33000E+01  5.19314E+00  4.86765E+00  1.99724E+00
  3.34000E+01  5.18183E+00  4.78873E+00  2.15899E+00
  3.35000E+01  5.17051E+00  4.70999E+00  2.34822E+00
  3.36000E+01  5.15919E+00  4.63147E+00  2.54899E+00
  3.37000E+01  5.14786E+00  4.55322E+00  2.74480E+00
  3.38000E+01  5.13653E+00  4.47528E+00  2.91994E+00
  3.39000E+01  5.12518E+00  4.39770E+00  3.06049E+00
  3.40000E+01  5.11383E+00  4.32052E+00  3.15546E+00
  3.41000E+01  5.10248E+00  4.24380E+00  3.19746E+00
  3.42000E+01  5.09112E+00  4.16757E+00  3.18327E+00
  3.43000E+01  5.07975E+00  4.09189E+00  3.11393E+00
  3.44000E+01  5.06837E+00  4.01677E+00  2.99463E+00
  3.45000E+01  5.05700E+00  3.94227E+00  2.83428E+00
  3.46000E+01  5.04561E+00  3.86843E+00  2.64469E+00
  3.47000E+01  5.03422E+00  3.79528E+00  2.43973E+00
  3.48000E+01  5.02283E+00  3.72286E+00  2.23419E+00
  3.49000E+01  5.01143E+00  3.65122E+00  2.04269E+00
  3.50000E+01  5.00002E+00  3.58037E+00  1.87853E+00
  3.51000E+01  4.98861E+00  3.51036E+00  1.75275E+00
  3.52000E+01  4.97720E+00  3.44121E+00  1.67331E+00
  3.53000E+01  4.96578E+00  3.37297E+00  1.64454E+00
  3.54000E+01  4.95436E+00  3.30566E+00  1.66684E+00
  3.55000E+01  4.94293E+00  3.23930E+00  1.73674E+00
  3.56000E+01  4.93150E+00  3.17393E+00  1.84718E+00
  3.57000E+01  4.92007E+00  3.10957E+00  1.98812E+00
  3.58000E+01  4.90864E+00  3.04626E+00  2.14733E+00
  3.59000E+01  4.89720E+00  2.98400E+00  2.31137E+00
  3.60000E+01  4.88575E+00  2.92282E+00  2.46661E+00
  3.61000E+01  4.87431E+00  2.86275E+00  2.60025E+00
  3.62000E+01  4.86286E+00  2.80381E+00  2.70129E+00
  3.63000E+01  4.85141E+00  2.74601E+00  2.76138E+00
  3.64000E+01  4.83995E+00  2.68937E+00  2.77542E+00
  3.65000E+01  4.82850E+00  2.63392E+00  2.74183E+00
  3.66000E+01  4.81704E+00  2.57965E+00  2.66272E+00
  3.67000E+01  4.80558E+00  2.52660E+00  2.54365E+00
  3.68000E+01  4.79412E+00  2.47476E+00  2.39318E+00
  3.69000E+01  4.78265E+00  2.42416E+00  2.22212E+00
